"Time (s)","Linear Acceleration x (m/s^2)","Linear Acceleration y (m/s^2)","Linear Acceleration z (m/s^2)","Absolute acceleration (m/s^2)"
4.504666671E-3,3.540275654E-1,6.794107908E-1,1.039586411E0,1.291384701E0
1.453466667E-2,5.207457170E-1,1.193258255E0,8.557049274E-1,1.557970567E0
2.456466667E-2,6.067660068E-1,1.559234313E0,6.788893653E-1,1.805621057E0
3.459466667E-2,7.038775876E-1,1.771543205E0,5.316158371E-1,1.978995802E0
4.462366667E-2,7.878493054E-1,1.755683802E0,3.834504622E-1,1.962184089E0
5.465366667E-2,8.871186550E-1,1.471389254E0,2.551015936E-1,1.736963634E0
6.468366667E-2,1.054728215E0,9.477629060E-1,1.291993462E-1,1.423867481E0
7.471366667E-2,1.224455636E0,3.029547679E-1,6.266636431E-2,1.262933200E0
8.474266667E-2,1.300493705E0,-3.166395915E-1,-9.018014520E-3,1.338516280E0
9.477266667E-2,1.302868406E0,-7.651368195E-1,-9.401036382E-2,1.513848864E0
1.048026667E-1,1.199422975E0,-9.780994302E-1,-2.381646949E-1,1.565891564E0
1.148326667E-1,9.938440816E-1,-8.749142003E-1,-4.527798750E-1,1.399360758E0
1.248616667E-1,7.723566690E-1,-4.022065759E-1,-7.227962539E-1,1.131697565E0
1.348916667E-1,6.184728634E-1,2.017271858E-1,-1.018300353E0,1.208361763E0
1.449216667E-1,4.683872630E-1,7.013776106E-1,-1.271533762E0,1.525816269E0
1.549506667E-1,3.424842846E-1,1.019570222E0,-1.530464989E0,1.870599371E0
1.649806667E-1,2.099836005E-1,1.177391835E0,-1.806815949E0,2.166778374E0
1.750106667E-1,1.511180726E-1,1.027417771E0,-2.024603975E0,2.275400009E0
1.850406667E-1,3.159855804E-1,3.089224362E-1,-1.953993875E0,2.003340217E0
1.950696667E-1,7.054009335E-1,-6.536894739E-1,-1.596196610E0,1.863529990E0
2.050996667E-1,1.054959180E0,-1.396120970E0,-1.324949831E0,2.194899699E0
2.151296667E-1,1.253736007E0,-1.790567706E0,-1.151120296E0,2.470438143E0
2.251596667E-1,1.367136030E0,-1.767309237E0,-1.109314750E0,2.494598580E0
2.351886667E-1,1.430307594E0,-1.281222013E0,-1.151455049E0,2.239008349E0
2.452186667E-1,1.473257439E0,-6.863268775E-1,-1.237221423E0,2.042608361E0
2.552486667E-1,1.652532632E0,-5.048421675E-1,-1.166732069E0,2.084944468E0
2.652786667E-1,1.862330730E0,-6.396403688E-1,-1.042350098E0,2.227983231E0
2.753076667E-1,2.095870716E0,-8.492624652E-1,-9.678399056E-1,2.459803829E0
2.853376667E-1,2.331431353E0,-9.682533038E-1,-1.042831323E0,2.731406924E0
2.953676667E-1,2.622792554E0,-1.039586996E0,-1.236900703E0,3.080536521E0
3.053976667E-1,3.158743079E0,-1.229004623E0,-2.045273589E0,3.958693504E0
3.154266667E-1,4.192342526E0,-1.787700816E0,-4.315847999E0,6.276794884E0
3.254566667E-1,5.345333930E0,-2.416390520E0,-6.124736202E0,8.480797811E0
3.354866667E-1,5.732820725E0,-2.912326208E0,-5.878534509E0,8.712292774E0
3.455166667E-1,5.318591689E0,-3.189307060E0,-4.310568841E0,7.552489709E0
3.555456667E-1,4.473141024E0,-2.890739458E0,-3.145098601E0,6.185225173E0
3.655756667E-1,3.748490618E0,-2.063416330E0,-3.066896185E0,5.264477284E0
3.756056667E-1,3.468728539E0,-1.246970193E0,-3.544629783E0,5.113845191E0
3.856356667E-1,3.736020554E0,-1.004894881E0,-3.151974342E0,4.990251051E0
3.956646667E-1,3.907305673E0,-1.134049349E0,-2.139858150E0,4.596966223E0
4.056946667E-1,3.569363798E0,-1.044641329E0,-4.245347536E-1,3.743242336E0
4.157246667E-1,2.903304832E0,-9.390236574E-1,1.609939613E0,3.450050715E0
4.257546667E-1,2.040105820E0,-9.163282746E-1,2.994904681E0,3.737799261E0
4.357836667E-1,1.160616612E0,-1.061391848E0,3.929881480E0,4.232912948E0
4.458136667E-1,3.238714278E-1,-1.375261028E0,4.348176670E0,4.571966311E0
4.558436667E-1,-3.774322155E-1,-1.564769288E0,4.480979801E0,4.761316833E0
4.658736667E-1,-6.269228210E-1,-1.648089772E0,4.127226178E0,4.488120770E0
4.759026667E-1,-5.133400722E-1,-1.534049186E0,3.574450876E0,3.923458168E0
4.859326667E-1,-3.452526489E-1,-1.180854557E0,2.622910668E0,2.897115332E0
4.959626667E-1,-1.113054045E-1,-7.870878518E-1,-1.486654580E-1,8.087011796E-1
5.059916667E-1,-3.040424962E-1,-6.550138682E-1,-2.127323474E0,2.246550727E0
5.160216667E-1,-1.190045210E0,-8.281253654E-1,-8.225909758E-1,1.666929853E0
5.260516667E-1,-2.008758020E0,-1.009214804E0,1.159918016E0,2.529631022E0
5.360816667E-1,-2.492466304E0,-1.053271235E0,2.188995227E0,3.480440873E0
5.461106667E-1,-2.641398979E0,-9.916070831E-1,2.003519207E0,3.460399166E0
5.561406667E-1,-2.504744872E0,-8.573193437E-1,1.345741360E0,2.969808603E0
5.661706667E-1,-2.220587440E0,-6.518423384E-1,1.262142695E0,2.636078754E0
5.762006667E-1,-2.126364530E0,-2.420215183E-1,1.636276788E0,2.693956618E0
5.862296667E-1,-2.139489483E0,1.468990141E-1,2.146005182E0,3.033864336E0
5.962596667E-1,-2.102222254E0,3.260015684E-1,2.464574500E0,3.255724634E0
6.062896667E-1,-2.035888516E0,5.664893621E-1,2.560716759E0,3.320093759E0
6.163196667E-1,-1.992035860E0,7.944144130E-1,2.589175158E0,3.362012660E0
6.263486667E-1,-1.940638542E0,8.377393574E-1,2.619667218E0,3.366086974E0
6.363786667E-1,-2.163006107E0,8.527298641E-1,2.549918121E0,3.450771807E0
6.464086667E-1,-2.395850421E0,8.684647214E-1,2.544491905E0,3.601217747E0
6.564386667E-1,-2.481255437E0,8.640301931E-1,2.763718053E0,3.813307514E0
6.664676667E-1,-2.582133063E0,9.153985673E-1,2.833510419E0,3.941338223E0
6.764976667E-1,-2.855501212E0,9.343476391E-1,2.715050508E0,4.049492801E0
6.865276667E-1,-3.314353275E0,9.013950706E-1,2.630110345E0,4.326075719E0
6.965576667E-1,-3.696518811E0,9.153079355E-1,2.314531585E0,4.456354608E0
7.065866667E-1,-3.937970226E0,1.000056894E0,1.851705755E0,4.465034994E0
7.166166667E-1,-3.938351757E0,1.126668409E0,1.560622004E0,4.383553046E0
7.266466667E-1,-3.716831746E0,1.304253611E0,1.469268615E0,4.204124876E0
7.366766667E-1,-3.277150950E0,1.465095896E0,1.247070765E0,3.800185499E0
7.467056667E-1,-2.614788301E0,1.600324452E0,6.530440874E-1,3.134425432E0
7.567356667E-1,-1.997087270E0,1.755207254E0,7.697055414E-2,2.659893708E0
7.667656667E-1,-1.726583672E0,1.874541909E0,-2.665350929E-1,2.562428438E0
7.767956667E-1,-1.516106420E0,1.795138475E0,-3.786107218E-1,2.380009853E0
7.868246667E-1,-1.090781708E0,1.531108621E0,-6.723458925E-1,1.996533832E0
7.968546667E-1,-5.428926310E-1,1.317783483E0,-1.065683119E0,1.779597210E0
8.068846667E-1,6.744675547E-2,1.278324718E0,-1.136161656E0,1.711585948E0
8.169146667E-1,5.062305889E-1,1.310524750E0,-9.896801332E-1,1.718490994E0
8.269436667E-1,5.824654171E-1,1.272076968E0,-6.854151504E-1,1.557960110E0
8.369736667E-1,6.259344953E-1,1.048056688E0,-6.107185784E-1,1.364988643E0
8.470036667E-1,9.600832817E-1,5.274480879E-1,-1.441254166E0,1.810296927E0
8.570336667E-1,1.932370287E0,-1.545097500E-1,-3.487259535E0,3.989850530E0
8.670626667E-1,3.893352462E0,-5.431899619E-1,-4.721575184E0,6.143819736E0
8.770926667E-1,5.880730138E0,-1.014370294E0,-4.410336958E0,7.420445144E0
8.871226667E-1,6.727184186E0,-1.966893418E0,-4.061437401E0,8.100552484E0
8.971526667E-1,5.261415861E0,-2.726977658E0,-2.968738976E0,6.628145677E0
9.071816667E-1,2.752760079E0,-2.161909754E0,-8.843690018E-1,3.610214726E0
9.172116667E-1,8.736871621E-1,-1.891211736E-1,1.031952579E0,1.365291984E0
9.272416667E-1,-6.888227615E-1,1.951583653E0,2.154952737E0,2.987804688E0
9.372716667E-1,-1.616388800E0,2.995007007E0,3.038703250E0,4.562509963E0
9.473006667E-1,-2.460237913E0,1.805576924E0,3.882975701E0,4.938661652E0
9.573306667E-1,-3.312649104E0,-1.854761363E0,3.201817178E0,4.966429003E0
9.673606667E-1,-2.587362521E0,-7.776298635E0,-4.810106707E0,9.502757063E0
9.773906667E-1,3.975638866E-1,-1.314098685E1,-1.205551909E1,1.783757643E1
9.874196667E-1,2.522062863E0,-1.363551979E1,-6.322906526E0,1.524031981E1
9.974497917E-1,2.970422974E0,-1.022208018E1,-1.293400448E0,1.072320944E1
1.007479792E0,1.521212794E0,-4.949335928E0,1.536458678E0,5.400992479E0
1.017509792E0,-1.134622377E0,-2.154927009E-1,3.483358272E0,3.669821507E0
1.027538792E0,-3.295258900E0,3.109900702E0,4.171038780E0,6.158553247E0
1.037568792E0,-4.373512655E0,5.163438746E0,4.216889137E0,7.973134053E0
1.047598792E0,-4.608753450E0,6.333687623E0,3.910661098E0,8.754968731E0
1.057628792E0,-4.475423485E0,6.738752902E0,3.670616523E0,8.883334492E0
1.067657792E0,-3.860529994E0,6.133074331E0,3.213768886E0,7.927584944E0
1.077687792E0,-3.071159390E0,4.780670654E0,2.504851291E0,6.209759406E0
1.087717792E0,-2.325891117E0,2.706787807E0,2.197781253E0,4.191266176E0
1.097747792E0,-1.540945392E0,6.239891267E-1,2.284709469E0,2.825557023E0
1.107776792E0,-7.888648206E-1,-8.754386955E-1,2.501565156E0,2.765235767E0
1.117806792E0,-4.381014633E-1,-1.773763393E0,2.816200322E0,3.356956020E0
1.127836792E0,-2.794641638E-1,-2.053622244E0,2.962647346E0,3.615624958E0
1.137866792E0,-2.596192986E-1,-1.786679893E0,2.944357256E0,3.453819171E0
1.147895792E0,-3.116288200E-1,-1.152720678E0,2.816497360E0,3.059172252E0
1.157925792E0,-4.178899777E-1,-6.625333875E-1,2.571690813E0,2.688340782E0
1.167955792E0,-5.256863219E-1,-2.307475019E-1,2.288776792E0,2.359680004E0
1.177985792E0,-5.794631642E-1,1.430059379E-1,1.932546873E0,2.022613575E0
1.188014792E0,-6.665293747E-1,5.098789591E-1,1.528841656E0,1.744016849E0
1.198044792E0,-7.346880287E-1,8.652809125E-1,1.162986050E0,1.625119722E0
1.208074792E0,-7.783722845E-1,1.076674131E0,8.438625616E-1,1.573910614E0
1.218104792E0,-7.864961135E-1,1.060758010E0,6.075572813E-1,1.453585065E0
1.228133792E0,-7.229823415E-1,8.719771439E-1,4.295832396E-1,1.211441028E0
1.238163792E0,-6.136727379E-1,6.016784906E-1,2.802260560E-1,9.039567898E-1
1.248193792E0,-4.768572472E-1,3.775137842E-1,1.540023579E-1,6.273963800E-1
1.258223792E0,-2.671107513E-1,1.726524907E-1,2.615803085E-2,3.191258037E-1
1.268252792E0,-2.586837441E-2,6.216116488E-2,-6.078122199E-2,9.070578901E-2
1.278282792E0,1.735593939E-1,1.067344898E-1,-1.525292981E-1,2.545197464E-1
1.288312792E0,3.261255294E-1,3.613415551E-1,-2.966503000E-1,5.700236670E-1
1.298342792E0,4.123914023E-1,6.880032742E-1,-4.732204252E-1,9.313177465E-1
1.308371792E0,5.082794532E-1,8.952151483E-1,-6.734565711E-1,1.230163370E0
1.318401792E0,6.244120266E-1,8.848310781E-1,-9.211978358E-1,1.421767164E0
1.328431792E0,7.876497692E-1,6.695781130E-1,-1.180027906E0,1.568818941E0
1.338461792E0,9.845072477E-1,2.329787993E-1,-1.510160533E0,1.817723432E0
1.348490792E0,1.160555363E0,-2.170463061E-1,-2.035817472E0,2.353412550E0
1.358520792E0,1.221772348E0,-5.393430787E-1,-2.667789218E0,2.983407102E0
1.368550792E0,9.496498024E-1,-5.275124073E-1,-2.788105620E0,2.992262862E0
1.378580792E0,6.001479819E-1,-1.634308469E-1,-2.183519309E0,2.270384068E0
1.388609792E0,4.619996184E-1,2.030474871E-1,-1.628957244E0,1.705336809E0
1.398639792E0,3.766144824E-1,4.185390186E-1,-1.293232779E0,1.410483746E0
1.408669792E0,3.479138629E-1,4.079076111E-1,-1.051529641E0,1.180316594E0
1.418699792E0,4.232267314E-1,2.499567747E-1,-8.429616518E-1,9.757989557E-1
1.428728792E0,5.491321948E-1,7.825679541E-2,-6.760468876E-1,8.744768080E-1
1.438758792E0,6.812947637E-1,-1.037810612E-1,-5.037879145E-1,8.536599595E-1
1.448788792E0,7.573810726E-1,-2.054015762E-1,-3.810297149E-1,8.723528760E-1
1.458818792E0,8.767570965E-1,-2.877958614E-1,-2.779510505E-1,9.637355709E-1
1.468847792E0,9.587691200E-1,-4.092875540E-1,-2.112984931E-1,1.063673625E0
1.478877792E0,1.036140647E0,-4.618101686E-1,-2.066582890E-1,1.153067093E0
1.488907792E0,1.259263087E0,-5.724465054E-1,-2.496866333E-1,1.405625106E0
1.498937792E0,1.555153980E0,-7.429437125E-1,-3.269917944E-1,1.754249952E0
1.508966792E0,1.915825590E0,-8.261566079E-1,-4.707932460E-1,2.138824143E0
1.518996792E0,2.242466698E0,-7.560005450E-1,-6.362834823E-1,2.450520432E0
1.529026792E0,2.478992272E0,-6.418184566E-1,-7.575146815E-1,2.670423583E0
1.539056792E0,2.665573123E0,-7.470016801E-1,-7.819162819E-1,2.876575161E0
1.549085792E0,2.835311069E0,-1.067490494E0,-8.393704382E-1,3.143734649E0
1.559115792E0,3.011356407E0,-1.454541671E0,-9.790586659E-1,3.484611134E0
1.569145792E0,3.317926216E0,-1.843285618E0,-1.171499304E0,3.972247080E0
1.579175792E0,4.353462553E0,-2.295637330E0,-4.619854097E0,6.750232502E0
1.589204792E0,6.296299941E0,-2.286992807E0,-1.502899782E1,1.645431568E1
1.599234792E0,7.280212088E0,-2.041086983E0,-1.404177264E1,1.594800624E1
1.609264792E0,6.045815163E0,-1.739208688E0,-5.230851880E0,8.181597596E0
1.619294792E0,3.797995777E0,-1.234484049E0,-7.176930964E-1,4.057561604E0
1.629323792E0,2.647426289E0,-9.458526206E-1,4.554875743E-1,2.847976838E0
1.639353792E0,3.819366473E0,-6.148171842E-1,-1.048850740E0,4.008197637E0
1.649383792E0,5.720073795E0,-5.162693810E-1,-3.323647424E0,6.635692164E0
1.659413792E0,5.905003100E0,-1.386533875E0,-2.230690552E0,6.462779444E0
1.669442792E0,4.311890896E0,-2.236363521E0,6.101078002E-1,4.895503695E0
1.679472792E0,2.766994833E0,-2.452752015E0,2.805481206E0,4.641441333E0
1.689502792E0,1.788541792E0,-2.628077268E0,4.363330314E0,5.398548259E0
1.699532792E0,1.013645677E0,-2.896572055E0,5.038091984E0,5.899150623E0
1.709561792E0,4.417955880E-1,-3.136330701E0,5.227273968E0,6.111967502E0
1.719591792E0,6.325795636E-2,-3.499062724E0,5.337995675E0,6.382917776E0
1.729621792E0,-3.184536901E-1,-4.016026170E0,5.260002004E0,6.625518850E0
1.739651792E0,-6.244495949E-1,-4.293834402E0,3.588792926E0,5.630842373E0
1.749680792E0,-6.700058368E-1,-4.241114151E0,-3.737926892E-1,4.309951049E0
1.759710792E0,-9.961237648E-1,-3.126654144E0,-9.878017151E-1,3.426949215E0
1.769740792E0,-1.948499832E0,-1.732598995E0,7.887648332E-1,2.724096333E0
1.779770792E0,-2.452818673E0,-7.678546053E-1,2.107646424E0,3.323867264E0
1.789799792E0,-2.617608998E0,3.787066162E-2,2.141072763E0,3.381937851E0
1.799829792E0,-2.682840243E0,6.398046756E-1,1.382139108E0,3.085010585E0
1.809859792E0,-2.867460523E0,9.873222435E-1,1.109097380E0,3.229122491E0
1.819889792E0,-3.080689766E0,1.180696097E0,1.754355169E0,3.736636826E0
1.829918792E0,-2.995616872E0,1.245375658E0,2.394798360E0,4.032336811E0
1.839948792E0,-2.832905232E0,1.100483408E0,2.771828141E0,4.113325544E0
1.849978792E0,-2.730449443E0,8.670760077E-1,2.952706203E0,4.114079348E0
1.860008792E0,-2.589150599E0,6.202989489E-1,2.938331115E0,3.965130686E0
1.870037792E0,-2.596198833E0,3.830926126E-1,3.025551692E0,4.005118147E0
1.880067792E0,-2.659275672E0,3.395519060E-1,3.240786531E0,4.205917253E0
1.890097792E0,-2.759849828E0,3.940046865E-1,3.433205242E0,4.422545534E0
1.900127792E0,-3.004102059E0,5.438238001E-1,3.336846344E0,4.522711247E0
1.910156792E0,-3.381874290E0,8.485005730E-1,3.130137038E0,4.685593325E0
1.920186792E0,-3.816820011E0,1.158945624E0,2.888487110E0,4.924898754E0
1.930216792E0,-4.393551648E0,1.373450730E0,2.801308925E0,5.388598583E0
1.940246792E0,-4.873609807E0,1.519731109E0,2.783347156E0,5.814522903E0
1.950275792E0,-5.176820099E0,1.624325518E0,2.572438087E0,6.004609682E0
1.960305792E0,-5.310957565E0,1.658501909E0,2.088055328E0,5.942800172E0
1.970335792E0,-5.115559405E0,1.667205489E0,1.706498194E0,5.644524626E0
1.980365792E0,-4.692098785E0,1.609970604E0,1.263681536E0,5.119051414E0
1.990394792E0,-3.910581868E0,1.474397061E0,6.474984419E-1,4.229154936E0
2.000424708E0,-2.794812669E0,1.278009553E0,2.604466796E-1,3.084172295E0
2.010454708E0,-1.680007091E0,1.135932738E0,3.982684761E-2,2.028386844E0
2.020484708E0,-7.388644025E-1,1.069502521E0,-5.656333297E-2,1.301136295E0
2.030513708E0,-3.688599050E-2,1.050777982E0,2.903025627E-2,1.051825888E0
2.040543708E0,3.417335021E-1,1.075222852E0,6.794479206E-2,1.130266545E0
2.050573708E0,6.349927095E-1,1.146440769E0,-2.026886143E-1,1.326131536E0
2.060603708E0,8.752366742E-1,1.075913993E0,-7.330828218E-1,1.568770404E0
2.070632708E0,1.278742501E0,8.981808561E-1,-1.436834840E0,2.122829620E0
2.080662708E0,1.684915536E0,7.540171695E-1,-1.976818774E0,2.704680151E0
2.090692708E0,2.188490320E0,5.773341930E-1,-2.183052117E0,3.144601913E0
2.100722708E0,2.739484853E0,3.121255410E-1,-1.931608103E0,3.366498102E0
2.110751708E0,3.518310296E0,-2.913082838E-3,-2.564476811E0,4.353740592E0
2.120781708E0,4.987897146E0,-2.186461043E-1,-4.576842271E0,6.773064980E0
2.130811708E0,7.030678652E0,-6.461798948E-1,-5.477063513E0,8.935670959E0
2.140841708E0,8.113371906E0,-1.677427007E0,-3.904639927E0,9.158972542E0
2.150870708E0,6.188362094E0,-2.499851337E0,-1.821523743E0,6.918311272E0
2.160900708E0,2.991335248E0,-1.757609290E0,-8.662588593E-1,3.575986772E0
2.170930708E0,1.073121655E0,4.740507299E-1,-2.017814188E-1,1.190390659E0
2.180960708E0,-3.327945712E-1,2.982574072E0,1.128592289E0,3.206278353E0
2.190989708E0,-1.487237547E0,4.994829605E0,2.738307223E0,5.887149119E0
2.201019708E0,-2.551314436E0,5.331687114E0,3.717679885E0,6.982638223E0
2.211049708E0,-3.620678378E0,3.096319374E0,3.928238997E0,6.174752400E0
2.221079708E0,-3.903837105E0,-2.124836068E0,1.532847583E0,4.701541680E0
2.231108708E0,-2.126871776E0,-9.876864080E0,-8.433839085E0,1.316076249E1
2.241138708E0,3.876794609E-1,-1.534099121E1,-9.947252862E0,1.828781415E1
2.251168708E0,1.319225114E0,-1.602826826E1,-4.016482837E0,1.657642521E1
2.261198708E0,2.116009404E0,-1.271511191E1,-1.273789033E0,1.295276439E1
2.271227708E0,1.168076344E0,-6.686366528E0,7.921853082E-1,6.833700114E0
2.281257708E0,-2.011379035E0,-4.258533007E-1,2.804921043E0,3.477726083E0
2.291287708E0,-3.922036563E0,3.418323201E0,4.087441138E0,6.616228485E0
2.301317708E0,-4.758579873E0,5.462864134E0,4.423404608E0,8.488431850E0
2.311346708E0,-4.873987245E0,6.468014538E0,4.134802415E0,9.093269750E0
2.321376708E0,-4.652659608E0,6.779853566E0,4.053305093E0,9.167493549E0
2.331406708E0,-4.064026255E0,6.344533038E0,3.246176494E0,8.204088658E0
2.341436708E0,-3.162432964E0,5.199600851E0,2.385804319E0,6.536734163E0
2.351465708E0,-2.284549255E0,3.286024100E0,1.924199388E0,4.440682714E0
2.361495708E0,-1.504684469E0,1.391381217E0,1.853601276E0,2.763305038E0
2.371525708E0,-9.711555693E-1,-1.462441260E-1,2.128599336E0,2.344240947E0
2.381555708E0,-8.026265350E-1,-1.222931120E0,2.489680105E0,2.887607471E0
2.391584708E0,-7.315527517E-1,-1.782176367E0,2.664346962E0,3.287866598E0
2.401614708E0,-7.480927706E-1,-1.778283876E0,2.687518308E0,3.308276136E0
2.411644708E0,-9.511554605E-1,-1.344611678E0,2.622517151E0,3.096816669E0
2.421674708E0,-1.003026988E0,-6.217952514E-1,2.497315400E0,2.762114530E0
2.431703708E0,-9.427533039E-1,3.039967418E-2,2.340792453E0,2.523691194E0
2.441733708E0,-9.306615543E-1,4.746120626E-1,2.140765053E0,2.382071063E0
2.451763708E0,-9.793030795E-1,6.498881990E-1,1.896156142E0,2.230873664E0
2.461792708E0,-1.079281696E0,5.461153239E-1,1.646260178E0,2.042856701E0
2.471822708E0,-1.168260239E0,3.336228293E-1,1.392468215E0,1.847999975E0
2.481852708E0,-1.137858518E0,1.214952010E-1,1.134284407E0,1.611236857E0
2.491882708E0,-9.843001100E-1,-1.911454797E-2,9.993439727E-1,1.402818751E0
2.501911708E0,-7.598392421E-1,-2.135344684E-2,9.344634140E-1,1.204588525E0
2.511941708E0,-5.298524630E-1,1.051294291E-1,9.371168073E-1,1.081657866E0
2.521971708E0,-3.231326321E-1,3.287076598E-1,9.505081006E-1,1.056375441E0
2.532001708E0,-2.181584466E-1,5.992366934E-1,7.954669118E-1,1.019531917E0
2.542030708E0,-9.149357602E-2,6.659300351E-1,5.775289784E-1,8.862130709E-1
2.552060708E0,5.409069166E-2,6.385674047E-1,3.876475205E-1,7.489757897E-1
2.562090708E0,1.955558883E-1,5.553176719E-1,1.838395299E-1,6.167793730E-1
2.572120708E0,4.221667774E-1,3.842649794E-1,3.137981370E-3,5.708714472E-1
2.582149708E0,6.890939261E-1,1.638249493E-1,-1.569388296E-1,7.254783589E-1
2.592179708E0,9.116850007E-1,-8.691301346E-2,-2.696351404E-1,9.546866089E-1
2.602209708E0,1.080878863E0,-2.209013754E-1,-3.830791640E-1,1.167838251E0
2.612239708E0,1.135001422E0,-4.633158267E-2,-5.171219051E-1,1.248114542E0
2.622268708E0,1.053360405E0,3.239392555E-1,-6.748686737E-1,1.292266424E0
2.632298708E0,8.968033983E-1,7.750624681E-1,-8.510375337E-1,1.459192602E0
2.642328708E0,7.327293576E-1,1.053180018E0,-1.005588507E0,1.630119231E0
2.652358708E0,6.206731707E-1,9.891296178E-1,-1.131564429E0,1.626053702E0
2.662387708E0,6.118093765E-1,5.979818809E-1,-1.221079892E0,1.490949075E0
2.672417708E0,7.239098561E-1,-2.895190358E-2,-1.254497022E0,1.448670587E0
2.682447708E0,9.528276180E-1,-6.724508500E-1,-1.259251100E0,1.716328625E0
2.692477708E0,1.298884990E0,-1.182117555E0,-1.292943049E0,2.180872729E0
2.702506708E0,1.711558228E0,-1.377473615E0,-1.330252671E0,2.568353032E0
2.712536708E0,2.043234227E0,-1.235520176E0,-1.590283906E0,2.868853275E0
