"Time (s)","Linear Acceleration x (m/s^2)","Linear Acceleration y (m/s^2)","Linear Acceleration z (m/s^2)","Absolute acceleration (m/s^2)"
5.419208333E-3,-6.322958567E0,-1.371811873E1,-1.453127815E0,1.517491901E1
1.544920834E-2,-5.013216759E0,-1.359125169E1,-1.090495194E0,1.452734128E1
2.547920834E-2,-3.395722835E0,-1.090826848E1,-6.597366643E-1,1.144362300E1
3.550820833E-2,-2.081508493E0,-7.576704513E0,-3.244631660E-1,7.864121390E0
4.553820834E-2,-7.673714791E-1,-4.259194912E0,-9.908709917E-3,4.327782165E0
5.556820834E-2,4.515589763E-1,-1.034097630E0,1.753556585E-1,1.141933897E0
6.559720833E-2,1.687471208E0,1.935806111E0,1.571801551E-1,2.572860272E0
7.562720834E-2,3.117329589E0,4.714310603E0,4.026147115E-1,5.666089201E0
8.565720834E-2,4.535051636E0,6.831773917E0,7.565267944E-1,8.234813962E0
9.568720833E-2,5.898162442E0,8.713579237E0,1.387341961E0,1.061317582E1
1.057162083E-1,7.068223039E0,1.018464046E1,1.858493056E0,1.253557636E1
1.157462083E-1,7.709737440E0,1.123849817E1,1.325238683E0,1.369306942E1
1.257762083E-1,8.100661229E0,1.192621026E1,4.870718944E-1,1.442540961E1
1.358062083E-1,8.319843523E0,1.223225820E1,1.956647927E-1,1.479480387E1
1.458352083E-1,7.999802606E0,1.242877727E1,3.031991816E-1,1.478388568E1
1.558652083E-1,7.424580427E0,1.261040348E1,-3.123231312E-2,1.463378441E1
1.658952083E-1,7.183806705E0,1.293290549E1,-4.339382458E-1,1.480052113E1
1.759252083E-1,7.528728694E0,1.350586363E1,-6.116047239E-1,1.547462983E1
1.859542083E-1,7.477778395E0,1.371945189E1,-3.181165616E-1,1.562823497E1
1.959842083E-1,7.162676622E0,1.354226138E1,6.169981956E-3,1.531981781E1
2.060142083E-1,6.921901145E0,1.330160869E1,4.638537705E-1,1.500202218E1
2.160442083E-1,6.586632909E0,1.285748811E1,9.734889738E-1,1.447917174E1
2.260732083E-1,6.296936703E0,1.229511811E1,1.224018703E0,1.386793290E1
2.361032083E-1,5.897990534E0,1.152315349E1,1.320731649E0,1.301205944E1
2.461332083E-1,5.538314851E0,1.059123245E1,1.148896015E0,1.200696041E1
2.561632083E-1,5.128950114E0,9.537987528E0,9.254306352E-1,1.086902743E1
2.661922083E-1,4.587359950E0,8.566295477E0,6.744166839E-1,9.740643067E0
2.762222083E-1,4.101579705E0,7.724306363E0,3.191466583E-1,8.751555259E0
2.862522083E-1,3.695392345E0,7.057850078E0,-8.334153414E-2,7.967190102E0
2.962822083E-1,3.329483822E0,6.765870534E0,-3.033009962E-1,7.546817747E0
3.063112083E-1,3.002601371E0,7.002717851E0,-2.673113839E-1,7.623983714E0
3.163412083E-1,2.558627549E0,7.817561851E0,1.519340515E-2,8.225635481E0
3.263712083E-1,2.078040509E0,8.998857288E0,3.019010997E-1,9.240607616E0
3.364002083E-1,1.855299307E0,9.852511597E0,6.406734987E-1,1.004612278E1
3.464302083E-1,1.682692278E0,1.030316118E1,1.013930583E0,1.048878634E1
3.564602083E-1,1.583871849E0,1.035510785E1,1.218653151E0,1.054618529E1
3.664902083E-1,1.426612884E0,1.030486156E1,1.584242270E0,1.052308033E1
3.765192083E-1,1.217285926E0,1.023904763E1,2.172714239E0,1.053757888E1
3.865492083E-1,1.082106340E0,1.015744389E1,2.679871320E0,1.056060277E1
3.965792083E-1,8.818760414E-1,9.972567798E0,3.394257231E0,1.057122490E1
4.066092083E-1,4.968077277E-1,9.253274319E0,3.964591137E0,1.007908163E1
4.166382083E-1,-1.556473258E-1,7.562257213E0,2.547940593E0,7.981476149E0
4.266682083E-1,-3.163533702E0,-1.161217268E0,-1.113140642E1,1.163033017E1
4.366982083E-1,-1.524026766E0,-8.660272511E0,-2.243198448E1,2.409391843E1
4.467282083E-1,-1.337770582E0,-1.197622734E1,-2.925626285E0,1.240076371E1
4.567572083E-1,-3.968092742E0,-2.154319367E1,8.668340499E0,2.355833357E1
4.667872083E-1,-9.473913739E0,-4.761625804E1,1.058496073E1,4.969008417E1
4.768172083E-1,-1.183327227E1,-7.386815600E1,1.102721605E1,7.561831986E1
4.868462083E-1,-7.397757495E0,-7.924096132E1,-6.548350604E0,7.985447804E1
4.968762083E-1,-5.489571877E0,-4.645311120E1,-9.034141141E0,4.764076663E1
5.069062083E-1,-3.076977077E0,-1.928218530E1,-3.489311907E0,1.983546711E1
5.169362083E-1,-2.382848844E0,-1.214258062E1,-2.892810541E0,1.270781593E1
5.269652083E-1,-9.312549005E-1,-9.728650612E0,1.983379204E-2,9.773140325E0
5.369952083E-1,1.858217652E0,-1.069035445E1,1.331416851E0,1.093203192E1
5.470252083E-1,4.628979262E0,-1.414800719E1,2.104840930E0,1.503409165E1
5.570552083E-1,4.708406962E0,-1.386094399E1,1.284529198E0,1.469506310E1
5.670842083E-1,2.382283857E0,-9.887144655E0,-5.624413713E-1,1.018563921E1
5.771146250E-1,5.950518411E-1,-6.559311794E0,-2.345789484E0,6.991522453E0
5.871446250E-1,-6.280231939E-1,-3.329673564E0,-3.735551022E0,5.043360052E0
5.971746250E-1,-1.181523917E0,5.843707323E-2,-4.303230293E0,4.462869549E0
6.072036250E-1,-8.791594251E-1,3.179524083E0,-3.708945022E0,4.963725200E0
6.172336250E-1,1.331128876E-1,5.761313623E0,-2.366800869E0,6.229943824E0
6.272636250E-1,1.475455846E0,7.763032472E0,-1.153307154E0,7.985722291E0
6.372936250E-1,2.765468709E0,9.279492064E0,-5.312768447E-1,9.697373110E0
6.473226250E-1,3.992503406E0,1.048130830E1,-1.298713740E-1,1.121671849E1
6.573526250E-1,5.177051064E0,1.134980226E1,4.629263655E-1,1.248335572E1
6.673826250E-1,5.861330831E0,1.152913987E1,1.174518514E0,1.298675322E1
6.774126250E-1,6.087043880E0,1.143076866E1,1.593342876E0,1.304811545E1
6.874416250E-1,6.377170442E0,1.148309656E1,1.787927688E0,1.325618704E1
6.974716250E-1,6.506509098E0,1.163869097E1,1.908471547E0,1.346982003E1
7.075016250E-1,6.566949427E0,1.183060243E1,1.819041892E0,1.365272471E1
7.175316250E-1,6.686589307E0,1.211531857E1,1.600975832E0,1.393034616E1
7.275606250E-1,6.717870741E0,1.229413227E1,1.321723337E0,1.407204420E1
7.375906250E-1,6.423065822E0,1.242889539E1,8.386556160E-1,1.401558270E1
7.476206250E-1,6.078511623E0,1.250801055E1,2.959825480E-1,1.390993304E1
7.576506250E-1,5.738683144E0,1.244307371E1,-1.216664879E-1,1.370318833E1
7.676796250E-1,5.330360380E0,1.210183722E1,-2.108681381E-1,1.322541763E1
7.777096250E-1,4.621268831E0,1.158584149E1,1.059398532E-2,1.247349033E1
7.877396250E-1,3.745718746E0,1.104562543E1,2.587194121E-1,1.166632700E1
7.977696250E-1,2.904655246E0,1.051392875E1,5.404160428E-1,1.092116154E1
8.077986250E-1,2.222443200E0,1.004870907E1,8.027420175E-1,1.032280013E1
8.178286250E-1,1.791630438E0,9.667689296E0,8.326423395E-1,9.867494576E0
8.278586250E-1,1.597246185E0,9.405752746E0,7.401007962E-1,9.569071495E0
8.378886250E-1,1.509605047E0,9.233815954E0,6.941978145E-1,9.382119967E0
8.479176250E-1,1.435026004E0,9.196137666E0,6.063165021E-1,9.327157515E0
8.579476250E-1,1.332776914E0,9.271618204E0,4.385341573E-1,9.377180313E0
8.679776250E-1,1.211885584E0,9.327157397E0,1.645932734E-1,9.406998603E0
8.780076250E-1,1.021259045E0,9.346448531E0,-3.399933342E-1,9.408223299E0
8.880366250E-1,7.317131115E-1,9.268406913E0,-1.117737372E0,9.364192843E0
8.980666250E-1,4.839810562E-1,9.152235602E0,-2.007490636E0,9.382306370E0
9.080966250E-1,3.787206495E-1,9.171658298E0,-2.056171045E0,9.406943426E0
9.181266250E-1,5.327013727E-1,9.344928254E0,-1.161740009E0,9.431918929E0
9.281556250E-1,6.885075966E-1,9.436495652E0,-7.592375636E-2,9.461884448E0
9.381856250E-1,6.994860363E-1,9.171165962E0,3.066970591E-1,9.202914153E0
9.482156250E-1,7.951738201E-2,8.220996927E0,-3.093477627E0,8.784117333E0
9.582446250E-1,-1.887188852E-1,5.523027306E0,-6.755476524E0,8.727881100E0
9.682746250E-1,6.065532412E-2,2.326268554E0,-3.071154127E0,3.853205435E0
9.783046250E-1,1.174677485E0,3.061738356E0,3.267983393E0,4.629667851E0
9.883346250E-1,2.004925463E0,-2.250090444E-1,5.351336682E0,5.719017351E0
9.983636250E-1,2.462387642E0,-1.439431063E1,6.403347842E0,1.594560739E1
1.008393625E0,2.929282549E0,-3.409189148E1,9.802086378E0,3.559380085E1
1.018423625E0,5.313991685E0,-5.486845671E1,1.277589255E1,5.658630116E1
1.028453625E0,8.172628759E0,-7.200911097E1,1.705218940E1,7.445052778E1
1.038482625E0,5.574577528E0,-6.731427861E1,8.351829547E0,6.805909988E1
1.048512625E0,2.499647854E0,-4.324005684E1,1.910268981E0,4.335435252E1
1.058542625E0,5.450012100E-1,-2.311697878E1,-1.088307868E1,2.555646954E1
1.068572625E0,-2.068362636E-1,-1.578467092E1,-2.419970770E1,2.889332916E1
1.078601625E0,-2.534873528E0,-1.367608310E1,-2.370403455E1,2.748348753E1
1.088631625E0,-5.224780716E0,-1.478169451E1,-1.164960070E1,1.953228155E1
1.098661625E0,-3.665909514E0,-1.590417047E1,-3.726522921E0,1.674122170E1
1.108691625E0,-2.206439225E0,-1.391390690E1,-3.503615366E0,1.451690393E1
1.118720625E0,-1.237867540E0,-1.015452964E1,-3.927212226E0,1.095763588E1
1.128750625E0,1.792637182E-1,-7.026601388E0,-2.924944500E0,7.613183492E0
1.138780625E0,1.493748422E0,-4.223371360E0,-1.160297500E0,4.627573909E0
1.148810625E0,2.583598960E0,-1.122791120E0,-5.094620526E-2,2.817488066E0
1.158839625E0,3.347039795E0,1.868131022E0,3.283170658E-1,3.847126330E0
1.168869625E0,4.274152966E0,4.644832817E0,6.415646875E-1,6.344640315E0
1.178899625E0,5.337644842E0,6.897396634E0,1.026724291E0,8.781725089E0
1.188929625E0,6.440252543E0,8.886343410E0,1.958511434E0,1.114808141E1
1.198958625E0,7.672666093E0,1.057706114E1,2.896354539E0,1.338405383E1
1.208988625E0,8.633572370E0,1.171989827E1,3.190244953E0,1.490208878E1
1.219018625E0,9.174584244E0,1.258992303E1,2.842298200E0,1.583533444E1
1.229048625E0,9.079366431E0,1.314033196E1,2.016021724E0,1.609868201E1
1.239077625E0,8.010620540E0,1.315021726E1,1.310288522E0,1.545364396E1
1.249107625E0,7.464468378E0,1.312645067E1,8.307536888E-1,1.512323203E1
1.259137625E0,7.355390325E0,1.333292755E1,4.785852456E-1,1.523475526E1
1.269167625E0,7.359254165E0,1.368824063E1,3.732757223E-1,1.554560671E1
1.279196625E0,7.354168841E0,1.412439847E1,2.511074885E-1,1.592625149E1
1.289226625E0,6.863607913E0,1.399693385E1,2.851800364E-2,1.558922975E1
1.299256625E0,6.094392661E0,1.353383086E1,-1.469253266E-1,1.484344255E1
1.309286625E0,5.030506976E0,1.293412171E1,-1.971236730E-1,1.387935023E1
1.319315625E0,3.921563816E0,1.222182209E1,-3.626793250E-1,1.284068278E1
1.329345625E0,3.115005321E0,1.129209843E1,-5.296266143E-1,1.172583683E1
1.339375625E0,2.537369996E0,1.025037954E1,-6.016047426E-1,1.057688307E1
1.349405625E0,2.107645693E0,9.425516335E0,-5.707537365E-1,9.675137641E0
1.359434625E0,1.822851646E0,9.001620682E0,-4.164258349E-1,9.193768188E0
1.369464625E0,1.689114275E0,8.902531427E0,-8.504336625E-3,9.061360006E0
1.379494625E0,1.683598743E0,9.079814327E0,6.910835874E-1,9.260406550E0
1.389524625E0,1.946523473E0,9.215989548E0,1.247966705E0,9.501622907E0
1.399553625E0,2.313985893E0,9.210107834E0,1.611271609E0,9.632072115E0
1.409583625E0,2.467375901E0,9.141784288E0,1.974011672E0,9.672480855E0
1.419613625E0,2.399100888E0,9.078394039E0,2.120734831E0,9.626548687E0
1.429642625E0,2.066798652E0,9.130014428E0,2.198013972E0,9.615616753E0
1.439672625E0,1.460705806E0,9.503922234E0,2.336411573E0,9.895302841E0
1.449702625E0,1.140361419E0,9.921616330E0,2.406371316E0,1.027275609E1
1.459732625E0,1.110030303E0,1.009411387E1,2.506183287E0,1.045964898E1
1.469761625E0,1.237297729E0,1.004789280E1,2.620577044E0,1.045746047E1
1.479791625E0,1.568477300E0,9.860655599E0,2.776724600E0,1.036353460E1
1.489821625E0,1.774290812E0,9.322369112E0,2.860231025E0,9.911387151E0
1.499851625E0,1.855364796E0,7.334016997E0,2.203745413E0,7.879509990E0
1.509880625E0,1.701989698E0,5.723975058E0,2.159147530E0,6.350006098E0
1.519910625E0,1.388058683E0,4.984246729E0,2.127203167E0,5.594141192E0
1.529940625E0,9.186213333E-1,5.021133889E0,3.096210616E0,5.970106436E0
1.539970625E0,5.110868111E-1,1.365372217E0,2.434853103E0,2.837950080E0
1.549999625E0,-9.078334397E-1,-9.637642209E0,1.865531934E0,9.858423723E0
1.560029625E0,-4.243701837E0,-3.057934742E1,5.461407008E0,3.135175371E1
1.570059208E0,-5.967756588E0,-6.157425879E1,1.048835771E1,6.274559038E1
1.580089208E0,-2.810187630E0,-9.203364006E1,2.172882171E1,9.460565390E1
1.590118208E0,7.692502772E0,-8.628059732E1,3.774822092E0,8.670504804E1
1.600148208E0,5.124447173E0,-3.972770456E1,-3.061436289E1,5.041616490E1
1.610178208E0,-4.822108701E0,-1.558016923E1,-3.346658089E1,3.722910745E1
1.620208208E0,-8.457467684E0,-1.319743353E1,-1.177645254E1,1.960576053E1
1.630237208E0,-6.553849910E0,-1.282375786E1,1.375483807E0,1.446698552E1
1.640267208E0,-5.641781917E0,-1.202461071E1,2.404209015E0,1.349819199E1
1.650297208E0,-4.890918443E0,-1.024611809E1,3.650030816E0,1.192588546E1
1.660327208E0,-3.725139178E0,-8.442445602E0,4.006594026E0,1.006003704E1
1.670356208E0,-2.372709334E0,-7.063782079E0,3.615241052E0,8.282314574E0
1.680386208E0,-6.936073919E-1,-6.423447061E0,2.780095519E0,7.033540677E0
1.690416208E0,1.787936313E0,-5.176851089E0,1.504168160E0,5.679702924E0
1.700446208E0,3.858973173E0,-2.518273575E0,-5.303670545E-1,4.638390342E0
1.710475208E0,4.585480655E0,1.186215869E0,-2.538907814E0,5.373992353E0
1.720505208E0,4.406397396E0,4.762914414E0,-2.960680928E0,7.132133151E0
1.730535208E0,4.382211266E0,7.408456146E0,-1.948094620E0,8.825195221E0
1.740565208E0,4.486045829E0,9.431283444E0,-1.198901988E0,1.051242506E1
1.750594208E0,4.981576890E0,1.089483860E1,-7.878567606E-1,1.200559597E1
1.760624208E0,5.284764962E0,1.154009405E1,-9.851564348E-1,1.273079120E1
1.770654208E0,5.869108213E0,1.195106092E1,-8.170618486E-1,1.333948569E1
1.780684208E0,6.906212481E0,1.243570388E1,-3.824921036E-1,1.422985601E1
1.790713208E0,7.767198029E0,1.274920586E1,1.071116352E-1,1.492926951E1
1.800743208E0,8.683516363E0,1.314166162E1,4.643659866E-1,1.575824744E1
1.810773208E0,9.612009770E0,1.351157051E1,1.154659030E0,1.662186834E1
1.820803208E0,1.026864741E1,1.371967993E1,1.687930945E0,1.721986783E1
1.830832208E0,9.799993075E0,1.343937377E1,2.213552363E0,1.677964379E1
1.840862208E0,8.340973021E0,1.275307672E1,2.950861698E0,1.552161014E1
1.850892208E0,6.814870201E0,1.200618847E1,3.426933811E0,1.422444701E1
1.860922208E0,5.548719386E0,1.149537103E1,3.355444583E0,1.319813814E1
1.870951208E0,4.458589059E0,1.099986278E1,2.845180292E0,1.220536965E1
1.880981208E0,3.728155172E0,1.059795441E1,2.154099044E0,1.143922730E1
1.891011208E0,3.230016837E0,1.021844205E1,1.452475265E0,1.081477004E1
1.901040208E0,2.831789876E0,9.755025063E0,8.302202766E-1,1.019160505E1
1.911070208E0,2.548805981E0,9.240562472E0,3.136657707E-1,9.590766025E0
1.921100208E0,2.333096056E0,8.749740173E0,-4.018688992E-2,9.055545555E0
1.931130208E0,2.300415967E0,8.275098875E0,-1.512183523E-1,8.590229450E0
1.941160208E0,2.431893096E0,8.022838297E0,-3.950729728E-2,8.383412145E0
1.951189208E0,2.596805774E0,8.035561253E0,2.402561709E-1,8.448157664E0
1.961219208E0,2.785004842E0,8.121938662E0,5.864826735E-1,8.606166482E0
1.971249208E0,3.003622295E0,8.317065511E0,9.231407925E-1,8.890866916E0
1.981279208E0,3.285120705E0,8.777248984E0,1.209888394E0,9.449653311E0
1.991308208E0,3.577589953E0,9.345841005E0,1.269133480E0,1.008734820E1
2.001338208E0,3.627788592E0,9.798088637E0,1.252443187E0,1.052292758E1
2.011368208E0,3.429241122E0,1.005238814E1,1.313971099E0,1.070218305E1
2.021397208E0,3.286333417E0,1.015789062E1,1.398320693E0,1.076745234E1
2.031427208E0,3.369113034E0,1.001287733E1,1.012673359E0,1.061292337E1
2.041457208E0,3.551896995E0,8.888565352E0,-2.725290152E0,9.952375229E0
2.051487208E0,3.700972343E0,5.449644749E0,-8.357696643E0,1.064175349E1
2.061516208E0,1.755982157E0,4.986631808E0,-2.090503557E0,5.685083574E0
2.071546208E0,4.843597365E-1,5.031129119E0,-7.601976764E-1,5.111239094E0
2.081576208E0,6.146199869E-1,5.086316310E0,2.348524811E0,5.635950685E0
2.091606208E0,1.006567696E0,3.249841529E-1,4.848122964E0,4.962165807E0
2.101635208E0,8.722261622E-1,-1.270243281E1,5.185216116E0,1.374769231E1
2.111665208E0,-5.319913745E-1,-3.631662840E1,7.676504205E0,3.712289361E1
2.121695208E0,-2.239778879E0,-6.598848094E1,1.277601417E1,6.725119154E1
2.131725208E0,-2.834524911E0,-8.409900584E1,1.397814441E1,8.529985836E1
2.141754208E0,-2.452637117E0,-7.578414356E1,8.650369082E0,7.631566503E1
2.151784208E0,-2.671140842E0,-4.133307399E1,-3.343941940E0,4.155406053E1
2.161814208E0,-3.107775531E0,-1.874985245E1,-1.755352850E1,2.587163695E1
2.171844208E0,-1.939532103E0,-9.390191551E0,-2.160483735E1,2.363697272E1
2.181873208E0,-3.845510544E0,-6.808252323E0,-1.782843300E1,1.946774960E1
2.191903208E0,-3.069632682E0,-9.281102972E0,-6.120033871E0,1.153327064E1
2.201933208E0,-1.707885446E0,-1.140654130E1,-2.583090545E0,1.181940836E1
2.211963208E0,-1.250055769E0,-1.084265337E1,-1.956324576E0,1.108841636E1
2.221992208E0,-8.306442728E-1,-8.678802922E0,-2.878699456E0,9.181421493E0
2.232022208E0,-3.340438288E-1,-6.415967302E0,-3.312887962E0,7.228516332E0
2.242052208E0,5.903594506E-1,-4.408978942E0,-2.023721922E0,4.887030797E0
2.252082208E0,1.648604034E0,-2.053774856E0,-1.108719796E0,2.857471961E0
2.262111208E0,2.782771205E0,5.618221146E-1,-3.575700645E-1,2.861348637E0
2.272141208E0,3.625121969E0,3.178627120E0,2.965076280E-1,4.830434394E0
2.282171208E0,4.204134898E0,5.511980746E0,6.949690622E-1,6.967041264E0
2.292201208E0,4.878345760E0,7.631442638E0,1.042183160E0,9.117199122E0
2.302230208E0,6.027273642E0,9.497448782E0,2.230120448E0,1.146747567E1
2.312260208E0,7.324957906E0,1.074649708E1,2.965199071E0,1.333921337E1
2.322290208E0,9.000628409E0,1.153550866E1,3.311026794E0,1.500140561E1
2.332319208E0,1.041285378E1,1.232232052E1,3.603898038E0,1.653043218E1
2.342349208E0,9.879767808E0,1.271291804E1,2.912613891E0,1.636188915E1
2.352379208E0,9.459351833E0,1.312442753E1,2.406629763E0,1.635609373E1
2.362409208E0,8.838913136E0,1.338409653E1,1.675497426E0,1.612661518E1
2.372439208E0,8.219845026E0,1.342347870E1,1.195651520E0,1.578560152E1
2.382468208E0,7.541088538E0,1.329572639E1,1.039374157E0,1.532072633E1
2.392498208E0,6.837674342E0,1.309724149E1,1.020827959E0,1.480991610E1
2.402528208E0,5.893184123E0,1.285520886E1,1.137150128E0,1.418728742E1
2.412557208E0,4.765068236E0,1.248592094E1,1.115547005E0,1.341076218E1
2.422587208E0,3.557709712E0,1.228131283E1,5.351512098E-1,1.279743451E1
2.432617208E0,2.177343772E0,1.219568270E1,-5.478034151E-1,1.240062865E1
2.442647208E0,1.390050683E0,1.177809561E1,-8.132939760E-1,1.188769213E1
2.452676208E0,1.045389480E0,1.130599726E1,-9.007320694E-1,1.138989603E1
2.462706208E0,6.929551350E-1,1.082022696E1,-1.416248256E0,1.093449849E1
2.472736208E0,4.396540453E-1,1.025518829E1,-1.895663806E0,1.043818585E1
2.482766208E0,2.950526945E-1,9.706137663E0,-1.992936916E0,9.913019821E0
2.492795208E0,4.521726416E-1,9.167593898E0,-1.611329935E0,9.319099857E0
2.502825208E0,9.185810606E-1,8.769969200E0,-9.747941454E-1,8.871661320E0
2.512855208E0,1.564638018E0,8.751869144E0,-2.368718755E-1,8.893785130E0
2.522885208E0,2.304945367E0,8.965983072E0,5.369229162E-1,9.273074561E0
2.532914208E0,2.976832399E0,9.281778325E0,1.288293636E0,9.832224596E0
2.542944208E0,3.532888867E0,9.579465922E0,1.912948176E0,1.038782180E1
2.552974208E0,3.949899715E0,9.739634022E0,2.514429030E0,1.080668922E1
2.563004208E0,4.274533035E0,9.850037055E0,3.081473293E0,1.117095969E1
2.573033750E0,4.862897708E0,9.951182191E0,3.449251463E0,1.160048002E1
2.583063750E0,5.699730747E0,9.776587840E0,3.424286191E0,1.182346550E1
2.593093750E0,7.062498030E0,7.955761378E0,2.100447039E-1,1.064035414E1
2.603123750E0,6.528209285E0,4.272943470E0,-2.623963752E0,8.231691693E0
2.613152750E0,3.882088386E0,2.693613446E0,-7.446277106E-1,4.783370575E0
2.623182750E0,2.477679865E0,3.103533084E0,1.726988007E0,4.330508364E0
2.633212750E0,1.568781939E0,3.763774363E0,5.328645977E0,6.709809399E0
2.643242750E0,7.256321535E-1,-8.730442607E-1,6.593218628E0,6.690237678E0
2.653271750E0,-2.082002363E-1,-1.822950873E1,4.609632579E0,1.880444225E1
2.663301750E0,-1.312443806E0,-5.030400322E1,6.356749041E0,5.072103614E1
2.673331750E0,-5.673023590E0,-9.107837342E1,1.269972555E1,9.213433850E1
2.683361750E0,-8.592117366E0,-1.032572068E2,1.972217892E0,1.036328369E2
2.693390750E0,-9.881689203E0,-6.566201451E1,-1.822161031E1,6.885619082E1
2.703420750E0,-4.996606573E0,-2.550595930E1,-1.515947961E1,3.008869986E1
2.713450750E0,-3.992269517E0,-1.342284369E1,-1.185432576E1,1.834764257E1
2.723480750E0,-2.391250855E0,-8.585994161E0,-5.505751122E0,1.047619548E1
2.733509750E0,-3.805237481E-1,-6.323753203E0,-1.335350858E0,6.474396869E0
2.743539750E0,4.904670802E-1,-4.920620837E0,-5.949308038E-2,4.945362151E0
2.753569750E0,8.831812131E-1,-3.694223487E0,1.251452669E0,3.999178667E0
2.763598750E0,1.329843804E0,-2.941724839E0,1.729399399E0,3.662383357E0
