"Time (s)","Linear Acceleration x (m/s^2)","Linear Acceleration y (m/s^2)","Linear Acceleration z (m/s^2)","Absolute acceleration (m/s^2)"
3.080166643E-3,6.093680178E-1,-1.668719333E-1,5.477437735E-1,8.361811195E-1
1.312816655E-2,5.491231316E-1,-2.123153239E-1,5.682464504E-1,8.182408196E-1
2.317616669E-2,5.483600700E-1,-2.396574891E-1,5.494079641E-1,8.123937404E-1
3.322516661E-2,5.175364727E-1,-2.274180973E-1,5.111624960E-1,7.621352169E-1
4.327316652E-2,4.397794680E-1,-2.246412545E-1,4.941575503E-1,6.986138836E-1
5.332116666E-2,3.254222555E-1,-1.855993956E-1,4.576113562E-1,5.914008229E-1
6.337016658E-2,1.980017786E-1,-1.578040713E-1,4.295481563E-1,4.986165338E-1
7.341816672E-2,6.226583004E-2,-1.278107786E-1,3.833691859E-1,4.088820875E-1
8.346616663E-2,-4.883199826E-2,-1.034144408E-1,3.307443181E-1,3.499584470E-1
9.351416654E-2,-1.605807678E-1,-6.509295881E-2,2.700559938E-1,3.208637033E-1
1.035631667E-1,-2.684963952E-1,-1.402162313E-2,2.145249867E-1,3.439591401E-1
1.136111666E-1,-3.711311097E-1,2.002554417E-2,1.358436835E-1,3.957181186E-1
1.236591665E-1,-4.643050294E-1,3.533121586E-2,6.700777575E-2,4.704439362E-1
1.337071666E-1,-5.331238340E-1,5.651392400E-2,1.068754077E-2,5.362173715E-1
1.437561666E-1,-5.854089054E-1,5.573449016E-2,-5.503896385E-2,5.906261148E-1
1.538041667E-1,-5.733192024E-1,6.870887697E-2,-1.080343258E-1,5.874412593E-1
1.638521666E-1,-4.676239090E-1,6.450472891E-2,-1.156627496E-1,4.860152795E-1
1.739011665E-1,-2.944843452E-1,4.183331966E-2,-9.320593312E-2,3.117024256E-1
1.839491667E-1,-9.321952790E-2,1.572140872E-2,-5.059347197E-2,1.072228636E-1
1.939971666E-1,8.357132971E-2,-2.223462224E-2,9.379957169E-3,8.698579868E-2
2.040451667E-1,2.258699007E-1,-5.195251107E-2,8.366985530E-2,2.464080359E-1
2.140941666E-1,3.091079392E-1,-5.951880813E-2,1.361161637E-1,3.429545401E-1
2.241421666E-1,3.533444645E-1,-1.072718489E-1,1.629022586E-1,4.036046407E-1
2.341901667E-1,3.691664453E-1,-1.481526572E-1,1.796557009E-1,4.364736476E-1
2.442391666E-1,3.208343840E-1,-1.589893019E-1,1.542564194E-1,3.898811909E-1
2.542871665E-1,2.080369163E-1,-1.381036323E-1,1.103648798E-1,2.730061876E-1
2.643351667E-1,1.007153660E-1,-9.065815508E-2,4.228245892E-2,1.419517255E-1
2.743831666E-1,1.762687013E-2,-4.504461050E-2,1.112842083E-2,4.963431510E-2
2.844321667E-1,-3.249473155E-2,6.317916512E-3,-1.281475782E-2,3.549706559E-2
2.944801666E-1,-8.841794059E-2,7.100858688E-2,-2.682015494E-2,1.165301349E-1
3.045281665E-1,-1.120425922E-1,1.366587853E-1,-2.106415585E-2,1.779687184E-1
3.145761667E-1,-1.240825939E-1,1.811917645E-1,-1.840250328E-2,2.203760372E-1
3.246251666E-1,-1.558091475E-1,1.917629457E-1,-8.727554083E-3,2.472360976E-1
3.346731665E-1,-2.131808580E-1,1.870875120E-1,-2.220772505E-2,2.845013154E-1
3.447211666E-1,-3.004913360E-1,1.714561504E-1,-2.687723838E-2,3.470081274E-1
3.547701666E-1,-3.718029548E-1,1.268436491E-1,-4.396748029E-2,3.952972146E-1
3.648181667E-1,-4.141704176E-1,6.865332842E-2,-6.950446375E-2,4.255364671E-1
3.748661666E-1,-3.769458733E-1,1.734050274E-2,-9.646385550E-2,3.894793446E-1
3.849141665E-1,-2.839441542E-1,1.063550055E-2,-1.168871565E-1,3.072458363E-1
3.949631667E-1,-1.821697113E-1,7.148981273E-2,-1.067876995E-1,2.229354386E-1
4.050111666E-1,-6.192625299E-2,1.473913497E-1,-8.876307249E-2,1.828604763E-1
4.150591667E-1,6.702590212E-2,1.651335561E-1,-4.618481755E-2,1.841048622E-1
4.251081666E-1,1.747832161E-1,1.408272654E-1,-5.568888187E-3,2.245272897E-1
4.351561666E-1,1.837839814E-1,1.123302752E-1,4.496633090E-2,2.200377546E-1
4.452041667E-1,9.757468030E-2,4.231454551E-2,8.871870674E-2,1.385003535E-1
4.552521666E-1,-1.755582646E-2,-5.085557342E-2,1.009697199E-1,1.144088315E-1
4.653011665E-1,-1.154857251E-1,-9.614752114E-2,1.133985615E-1,1.882565597E-1
4.753489166E-1,-2.219747780E-1,-9.964591026E-2,1.217996947E-1,2.720979146E-1
4.853969165E-1,-3.274078238E-1,-6.169865012E-2,1.268250111E-1,3.564929031E-1
4.954459167E-1,-4.250329363E-1,7.480927706E-3,1.639700333E-1,4.556260891E-1
5.054939166E-1,-4.950327323E-1,5.386221170E-2,2.055460024E-1,5.387092936E-1
5.155419167E-1,-5.661423299E-1,4.622691751E-2,2.643970585E-1,6.265459840E-1
5.255899166E-1,-6.591662684E-1,2.291523814E-2,3.216284359E-1,7.338052387E-1
5.356389165E-1,-7.649736822E-1,1.363278329E-2,3.783509593E-1,8.535338514E-1
5.456869167E-1,-8.389425682E-1,2.741291642E-2,4.214963941E-1,9.392738210E-1
5.557349166E-1,-8.834739393E-1,4.018089652E-2,4.787022630E-1,1.005632419E0
5.657839165E-1,-8.502110298E-1,5.163208365E-2,5.368024635E-1,1.006817537E0
5.758319166E-1,-7.609681933E-1,6.628462136E-2,5.949470298E-1,9.682087639E-1
5.858799166E-1,-6.284954296E-1,8.651189446E-2,6.446074323E-1,9.044388065E-1
5.959279167E-1,-4.653366244E-1,7.020868778E-2,6.884231043E-1,8.339027547E-1
6.059769166E-1,-3.351201551E-1,-5.456621647E-3,7.036584632E-1,7.794039555E-1
6.160249165E-1,-2.208300394E-1,-3.527098954E-2,6.781752741E-1,7.140949877E-1
6.260729167E-1,-1.541380133E-1,1.053200483E-2,6.332429302E-1,6.518175043E-1
6.361219166E-1,-1.405430907E-1,8.241591990E-2,5.655473757E-1,5.885478556E-1
6.461699167E-1,-1.506672522E-1,1.150580013E-1,4.692753819E-1,5.061208834E-1
6.562179166E-1,-1.926667790E-1,1.296240002E-1,3.625508324E-1,4.305414907E-1
6.662659165E-1,-2.474845719E-1,9.989675581E-2,2.897810642E-1,3.939556324E-1
6.763149167E-1,-2.827194549E-1,7.124773800E-2,2.326644384E-1,3.730137682E-1
6.863629166E-1,-2.675041227E-1,3.455762923E-2,2.471782509E-1,3.658548525E-1
6.964109165E-1,-1.940528615E-1,5.302079737E-2,3.594015221E-1,4.118703340E-1
7.064599167E-1,-1.436520553E-1,1.017368746E-1,6.669616301E-1,6.898000585E-1
7.165079166E-1,-1.943842524E-1,1.604107600E-1,1.203735881E0,1.229836136E0
7.265559167E-1,-3.259965983E-1,1.678244448E-1,1.860255553E0,1.896045767E0
7.366039166E-1,-3.908221932E-1,1.579987836E-1,2.461213521E0,2.497053783E0
7.466529165E-1,-3.250122195E-1,1.752480698E-1,2.775817112E0,2.800268820E0
7.567009167E-1,-1.640338410E-1,1.820366871E-1,2.745401065E0,2.756314834E0
7.667489166E-1,9.074747130E-2,2.038508946E-1,2.373727480E0,2.384192199E0
7.767979165E-1,5.115331364E-1,2.640900797E-1,1.734721534E0,1.827749578E0
7.868459166E-1,9.455761935E-1,4.092881387E-1,1.089149092E0,1.499292121E0
7.968939166E-1,1.296542888E0,6.575264168E-1,7.707811368E-1,1.645438546E0
8.069419167E-1,1.314504219E0,1.122714522E0,8.951303637E-1,1.946706862E0
8.169909166E-1,1.264374577E0,1.624458835E0,9.991944301E-1,2.288208707E0
8.270389165E-1,1.561365623E0,2.198448420E0,1.258671641E-1,2.699422273E0
8.370869167E-1,2.068673269E0,2.775622984E0,-2.028815432E0,4.012428704E0
8.471359166E-1,1.636862825E0,3.103217919E0,-5.333185170E0,6.383740708E0
8.571839167E-1,-1.129921508E0,3.511926014E0,-4.154315159E0,5.555959087E0
8.672319166E-1,-4.754728312E0,3.910328391E0,1.095800958E0,6.252910457E0
8.772799165E-1,-6.918374104E0,3.666771394E0,2.791172485E0,8.312626333E0
8.873289167E-1,-6.723688720E0,3.072126519E0,1.023159828E0,7.462761379E0
8.973769166E-1,-3.034333918E0,2.186967412E0,9.299815232E-1,3.854202177E0
9.074249165E-1,7.953166384E-1,1.141537879E0,6.923482671E-1,1.554021688E0
9.174739167E-1,1.963248556E0,8.006077838E-1,-1.445001939E0,2.565803640E0
9.275219166E-1,2.050834292E0,1.724434528E0,-3.309517043E0,4.258227188E0
9.375699167E-1,2.497179744E0,2.720773178E0,-3.181486993E0,4.874461288E0
9.476179166E-1,4.343616427E0,3.289780936E0,-2.518218026E0,6.002589799E0
9.576669165E-1,5.971140372E0,3.002346432E0,-1.480081725E0,6.845381169E0
9.677149167E-1,6.117987930E0,2.443778878E0,-9.382816458E-1,6.654487506E0
9.777629166E-1,4.208028266E0,1.355417333E0,-2.531249716E0,5.094299084E0
9.878119165E-1,3.259207599E0,-3.148187685E-1,-3.575653648E0,4.848385715E0
9.978599166E-1,2.037972756E0,-2.029214796E0,-1.203201592E0,3.117489329E0
1.007907917E0,-1.172455616E0,-4.093502946E0,9.421758914E-1,4.361090913E0
1.017955917E0,-5.200125931E0,-6.877133693E0,-3.179604775E-1,8.627709800E0
1.028004917E0,-7.972372148E0,-1.055811031E1,-2.161684929E-1,1.323174742E1
1.038052917E0,-9.340947470E0,-1.405159128E1,5.794690114E-1,1.688301814E1
1.048100917E0,-1.064279904E1,-1.631307678E1,3.746292796E-1,1.948142687E1
1.058149917E0,-1.033165350E1,-1.607598856E1,1.027639819E0,1.913730691E1
1.068197917E0,-7.146259979E0,-1.267115956E1,2.099243975E0,1.469809993E1
1.078245917E0,-2.365984012E0,-1.007053439E1,1.780460209E0,1.049683675E1
1.088293917E0,1.302730996E0,-9.026250324E0,2.064192694E0,9.350464931E0
1.098342917E0,1.840224600E0,-8.166665184E0,1.758332006E0,8.554097162E0
1.108390917E0,1.288007707E0,-8.306798970E0,9.502755276E-1,8.459603806E0
1.118438917E0,5.779504895E-2,-9.540161523E0,3.285936026E-1,9.545993709E0
1.128487917E0,-1.873085075E0,-1.206087163E1,-1.434203886E0,1.228942688E1
1.138535917E0,-4.590239704E0,-1.674568888E1,-2.824351925E0,1.759162756E1
1.148583917E0,-7.045650448E0,-2.100241744E1,-3.412470138E0,2.241400635E1
1.158631917E0,-9.255791545E0,-2.355399734E1,-3.343123330E0,2.552718044E1
1.168680917E0,-1.194441381E1,-2.414127998E1,-2.640230706E0,2.706365161E1
1.178728917E0,-1.302400511E1,-2.053550323E1,-2.318574203E0,2.442759482E1
1.188776917E0,-9.254765943E0,-1.238742927E1,-1.043009956E0,1.549796652E1
1.198825917E0,-5.100535569E0,-4.856074592E0,2.477722184E-1,7.046865588E0
1.208873917E0,-2.604925218E0,3.124880683E-1,6.540742207E-1,2.703904079E0
1.218921917E0,-1.084055509E0,3.844665329E0,3.517240548E-1,4.010029632E0
1.228970917E0,-3.215647012E-2,6.421346741E0,3.411990301E-1,6.430485579E0
1.239018917E0,8.475265731E-1,8.641421088E0,1.097907125E0,8.752020325E0
1.249066917E0,1.890057934E0,1.021984889E1,2.108803003E0,1.060493660E1
1.259114917E0,2.655425865E0,1.101892470E1,3.058621205E0,1.173981055E1
1.269163917E0,2.592913283E0,1.135018935E1,3.365354444E0,1.211922473E1
1.279211917E0,2.212184261E0,1.185350481E1,3.002355788E0,1.242632189E1
1.289259917E0,1.874299542E0,1.214438975E1,2.666812148E0,1.257422317E1
1.299308917E0,2.069819324E0,1.116198619E1,2.339713057E0,1.159087334E1
1.309356917E0,1.849804825E0,1.084590910E1,1.532130130E0,1.110868781E1
1.319404917E0,1.666854656E0,1.050878671E1,2.310112113E-1,1.064266737E1
1.329452917E0,1.472697861E0,1.024740448E1,-1.331703365E0,1.043798694E1
1.339501917E0,1.183225895E0,1.019329434E1,-2.386111298E0,1.053550189E1
1.349549917E0,8.711610188E-1,1.021582016E1,-2.895712515E0,1.065396893E1
1.359597917E0,1.644856115E-1,1.025036551E1,-3.315757191E0,1.077456701E1
1.369646917E0,-4.609490199E-1,1.022632175E1,-3.620228727E0,1.085800104E1
1.379694917E0,-8.712792787E-1,1.017263379E1,-3.599468772E0,1.082579241E1
1.389742917E0,-9.665463553E-1,1.014974896E1,-3.518691827E0,1.078576877E1
1.399790917E0,-9.532724449E-1,1.016906114E1,-3.395900298E0,1.076339499E1
1.409839917E0,-8.139156812E-1,1.019171092E1,-3.248448722E0,1.072780729E1
1.419887917E0,-7.894919345E-1,1.016808349E1,-3.115619279E0,1.066397219E1
1.429935917E0,-7.503517693E-1,1.016271691E1,-3.013674828E0,1.062666828E1
1.439984917E0,-6.774927579E-1,1.024127893E1,-2.857959382E0,1.065414109E1
1.450032917E0,-7.597769693E-1,1.034344616E1,-2.679765485E0,1.071192245E1
1.460080917E0,-8.818680746E-1,1.047239013E1,-2.583005760E0,1.082222552E1
1.470128917E0,-8.385804062E-1,1.058738264E1,-2.479158041E0,1.090605854E1
1.480177542E0,-8.596994528E-1,1.082565902E1,-2.185577529E0,1.107748733E1
1.490225542E0,-1.394501584E0,1.107513165E1,-2.082016323E0,1.135508554E1
1.500273542E0,-1.728932645E0,1.144216137E1,-1.839052818E0,1.171726846E1
1.510322542E0,-1.237696656E0,1.167622191E1,-1.521648411E0,1.183982537E1
1.520370542E0,-2.685614455E-1,1.175406589E1,-1.261249679E0,1.182459052E1
1.530418542E0,5.056683791E-1,1.190318860E1,-1.034354907E0,1.195874113E1
1.540467542E0,1.047212861E0,1.212490800E1,-6.978388757E-1,1.219003806E1
1.550515542E0,1.377064894E0,1.254387153E1,-4.111890686E-1,1.262592955E1
1.560563542E0,1.557181064E0,1.294582316E1,-3.096188396E-1,1.304281465E1
1.570611542E0,1.715659611E0,1.319993731E1,-4.729578853E-2,1.331105066E1
1.580660542E0,2.515361954E0,1.309287830E1,2.202733845E0,1.351305089E1
1.590708542E0,5.658924199E0,1.143693162E1,1.151424819E1,1.718734241E1
1.600756542E0,5.229516960E0,8.762905764E0,1.000653661E1,1.429220557E1
1.610805542E0,3.130612124E0,8.846029782E0,1.983743924E0,9.591048698E0
1.620853542E0,2.891246996E0,9.019506730E0,-1.193539506E-1,9.472331086E0
1.630901542E0,3.069618941E0,8.724829865E0,-1.184177383E-1,9.249823748E0
1.640950542E0,3.296008513E0,8.279326996E0,-2.221129185E-1,8.914048562E0
1.650998542E0,3.388246878E0,7.933617972E0,-5.996740651E-1,8.647665582E0
1.661046542E0,2.779822162E0,7.438026100E0,-1.953634272E0,8.177305814E0
1.671094542E0,-2.378138035E0,4.834483749E0,-4.871895989E0,7.263824348E0
1.681143542E0,-7.117966472E0,-3.730342323E-1,-1.067626383E1,1.283694709E1
1.691191542E0,-1.340001967E1,-7.625862640E0,-1.720524962E1,2.310270380E1
1.701239542E0,-1.943511221E1,-1.637967306E1,-1.634113289E1,3.021671558E1
1.711288542E0,-2.005754715E1,-3.204662199E1,-8.806321925E0,3.881806904E1
1.721336542E0,-1.197578880E1,-4.512395020E1,-1.795704778E-1,4.668642891E1
1.731384542E0,-3.213764793E0,-5.382941116E1,2.280064295E0,5.397344239E1
1.741432542E0,5.446738683E0,-6.018917971E1,5.667530715E-1,6.043778226E1
1.751481542E0,9.637146950E0,-5.198714530E1,1.194352415E0,5.288633430E1
1.761529542E0,1.013131035E1,-3.918910583E1,1.124455589E1,4.201034995E1
1.771577542E0,8.538045824E0,-2.154484492E1,2.078624587E1,3.113111926E1
1.781626542E0,4.351924151E0,-8.915076628E0,1.308204808E1,1.641821602E1
1.791674542E0,-1.451311962E0,-3.605835221E0,3.104287959E0,4.974430398E0
1.801722542E0,-2.270076520E0,-2.994978940E-1,1.028104234E0,2.509969065E0
1.811771542E0,-5.128417432E-2,8.183681166E-1,2.301897506E-1,8.516711584E-1
1.821819542E0,2.662294882E0,5.734072030E-1,-7.635365096E-1,2.828356035E0
1.831867542E0,4.256658097E0,1.974528712E-1,-2.214041190E0,4.802093729E0
1.841915542E0,4.042503239E0,-1.912571615E-1,-2.957718143E0,5.012634872E0
1.851964542E0,2.435350409E0,-1.030799800E-1,-2.624135660E0,3.581570194E0
1.862012542E0,4.718723497E-1,-4.553694606E-2,-2.070244709E0,2.123829155E0
1.872060542E0,-1.098983890E0,-2.575663412E-1,-1.837100433E0,2.156164189E0
1.882109542E0,-2.331802944E0,-6.568586648E-2,-1.858297759E0,2.982430245E0
1.892157542E0,-2.996019160E0,4.507910907E-1,-1.792903084E0,3.520489296E0
1.902205542E0,-3.478986309E0,1.135724577E0,-1.633413261E0,4.007649552E0
1.912254542E0,-4.000792126E0,2.052658038E0,-1.508418501E0,4.742896692E0
1.922302542E0,-4.509846336E0,3.018709280E0,-1.410509799E0,5.607214779E0
1.932350542E0,-4.973625262E0,3.966870382E0,-1.307955483E0,6.494902341E0
1.942398542E0,-5.403297964E0,4.839462653E0,-1.240101469E0,7.358931941E0
1.952447542E0,-5.706083747E0,5.699253030E0,-1.207064043E0,8.154623255E0
1.962495542E0,-5.930671792E0,6.421186527E0,-1.095338370E0,8.809328605E0
1.972543542E0,-6.131430679E0,6.901939335E0,-8.217752892E-1,9.268577204E0
1.982592542E0,-6.220853317E0,7.154726163E0,-5.057596322E-1,9.494467613E0
1.992640542E0,-6.315134992E0,7.276063489E0,-2.914667434E-1,9.638826833E0
2.002688542E0,-6.471077310E0,7.313419595E0,-1.772612661E-1,9.766901724E0
2.012737542E0,-6.415449824E0,7.215596847E0,-1.269617629E-1,9.656031979E0
2.022785542E0,-6.127780262E0,6.750958380E0,-1.104808191E-1,9.117967756E0
2.032833542E0,-5.678049272E0,6.118274444E0,-1.871448147E-1,8.349164562E0
2.042881542E0,-5.214583756E0,5.381227648E0,-2.215416821E-1,7.496570914E0
2.052930542E0,-4.770215247E0,4.519993594E0,-2.199980537E-1,6.575233436E0
2.062978542E0,-4.342798401E0,3.541752661E0,-2.263784258E-1,5.608489730E0
2.073026542E0,-3.915244145E0,2.440962274E0,-3.000697517E-1,4.623578203E0
2.083075542E0,-3.625829775E0,1.215647829E0,-1.633629461E-1,3.827679277E0
2.093123542E0,-3.602992889E0,-7.909060836E-2,3.690886773E-2,3.604049854E0
2.103171542E0,-3.412907510E0,-1.145773602E0,9.119390622E-3,3.600113607E0
2.113220542E0,-2.863287950E0,-2.432486735E0,-2.332021630E-1,3.764278529E0
2.123268542E0,-2.102950525E0,-3.698328817E0,-6.091771062E-1,4.297805684E0
2.133316542E0,-1.219471323E0,-4.948077607E0,-1.127310580E0,5.219330556E0
2.143364542E0,8.826430500E-2,-5.788296184E0,-1.876125920E0,6.085393312E0
2.153413542E0,9.814545625E-1,-6.693107198E0,-1.939874458E0,7.037332586E0
2.163461542E0,2.450202044E0,-7.613639621E0,-1.773058219E0,8.192358255E0
2.173509542E0,3.687821370E0,-8.168847365E0,-1.738843821E0,9.129823195E0
2.183558542E0,4.821512285E0,-8.365351818E0,-1.802367972E0,9.822149564E0
2.193606542E0,4.848100160E0,-7.431038092E0,-1.689030222E0,9.032011148E0
2.203654542E0,3.520675203E0,-5.101471708E0,-2.117957404E0,6.550260379E0
2.213703542E0,2.349310092E0,-2.610624499E0,-1.913267434E0,3.999401262E0
2.223751542E0,2.041416766E0,-1.310045278E0,-5.345080892E-1,2.483807549E0
2.233799542E0,1.701592380E0,-5.439243722E-1,4.899183921E-1,1.852374255E0
2.243847542E0,9.984243518E-1,6.315934306E-1,1.049950747E0,1.580556237E0
2.253896542E0,3.646013778E-1,1.746880819E0,1.444846988E0,2.296107484E0
2.263944542E0,-7.486365616E-2,2.423380866E0,1.689253439E0,2.954988421E0
2.273992542E0,-1.890925223E-1,2.954173561E0,1.816659737E0,3.473204574E0
2.284041542E0,3.232779354E-2,3.244398941E0,1.907623701E0,3.763800972E0
2.294089542E0,6.429457998E-1,3.242041928E0,1.888932492E0,3.806872880E0
2.304137542E0,1.722535060E0,3.222332134E0,2.101050911E0,4.214850690E0
2.314186542E0,3.206468638E0,3.143362563E0,2.617275707E0,5.197335995E0
2.324234542E0,4.321782339E0,2.828836740E0,2.527456627E0,5.750491882E0
2.334282542E0,4.516632906E0,2.320317843E0,2.025293215E0,5.466777873E0
2.344330542E0,4.166430882E0,1.892544901E0,1.466375266E0,4.805322978E0
2.354379542E0,3.699540652E0,1.678668956E0,1.010044962E0,4.186253854E0
2.364427542E0,3.369441940E0,1.535468890E0,6.587389831E-1,3.760949447E0
2.374475542E0,3.406812957E0,1.321031027E0,3.390170319E-1,3.669663478E0
2.384524542E0,3.358903795E0,1.062630288E0,2.326607108E-2,3.523061048E0
2.394572542E0,3.027847601E0,8.926143068E-1,-2.058405559E-1,3.163382957E0
2.404620542E0,2.195189475E0,8.446881884E-1,-1.945567453E-1,2.360128660E0
2.414669542E0,1.398527099E0,7.210540760E-1,-7.639621139E-2,1.575320097E0
2.424717542E0,9.631463456E-1,4.307632077E-1,-5.254417621E-2,1.056394204E0
2.434765542E0,8.258241937E-1,1.188861734E-1,-9.821209989E-2,8.400982904E-1
2.444814542E0,7.571097618E-1,-1.478678977E-1,-1.596617317E-1,7.877639083E-1
2.454862542E0,6.692018446E-1,-3.383070338E-1,-2.207570954E-1,7.816754142E-1
2.464910542E0,5.243815157E-1,-4.200195336E-1,-2.995025718E-1,7.355910366E-1
2.474959625E0,3.036792380E-1,-4.781630766E-1,-3.870657226E-1,6.860618638E-1
2.485008625E0,3.508300155E-2,-5.228972000E-1,-4.663060196E-1,7.014938365E-1
2.495056625E0,-1.736798465E-1,-4.977991962E-1,-5.486745771E-1,7.609287223E-1
2.505104625E0,-3.604668117E-1,-5.239496988E-1,-6.441620207E-1,9.052095437E-1
2.515153625E0,-5.118711054E-1,-5.934882957E-1,-7.024095710E-1,1.052435077E0
2.525201625E0,-7.172533858E-1,-6.180980569E-1,-7.681101286E-1,1.219217289E0
2.535249625E0,-9.066131258E-1,-6.725268638E-1,-8.414049768E-1,1.407906985E0
2.545298625E0,-1.129411923E0,-7.551778418E-1,-8.546523555E-1,1.605084270E0
2.555346625E0,-1.333916536E0,-7.907996643E-1,-8.167998934E-1,1.752672103E0
2.565394625E0,-1.545143693E0,-8.293544501E-1,-7.633690600E-1,1.912597751E0
2.575442625E0,-1.823619677E0,-8.223962635E-1,-6.486549481E-1,2.103016306E0
2.585491625E0,-1.938634409E0,-8.190306062E-1,-5.091602632E-1,2.165261804E0
2.595539625E0,-1.977313156E0,-7.866189051E-1,-3.603964989E-1,2.158337846E0
2.605587625E0,-2.094860902E0,-7.355195028E-1,-2.391511933E-1,2.233075106E0
2.615636625E0,-2.271808757E0,-7.397482091E-1,-1.524942148E-1,2.394075381E0
2.625684625E0,-2.338766978E0,-8.124185747E-1,-1.039599129E-1,2.478036033E0
2.635732625E0,-2.261993621E0,-9.242570990E-1,-1.687951557E-1,2.449358718E0
2.645781625E0,-2.055857635E0,-1.088671448E0,-2.827291759E-1,2.343435922E0
2.655829625E0,-1.793315313E0,-1.142368768E0,-3.861278292E-1,2.161037000E0
2.665877625E0,-1.520906984E0,-9.935372490E-1,-3.557937169E-1,1.851178946E0
2.675926625E0,-1.077699147E0,-7.247442538E-1,-2.207744177E-1,1.317357594E0
2.685974625E0,-7.487096518E-1,-4.028012377E-1,-9.106453657E-2,8.550483785E-1
2.696022625E0,-6.425019962E-1,-1.337135428E-1,1.541326046E-2,6.564493089E-1
